10727512
10712232
10698010
10684155
10671185
10619637
10619637
10619637
10619637
10609193
10599144
10583887
10575398
10568299
10560930
10551987
10541417
10534833
10525807
10504861
10499087
10499087
10499087
10490581
10480726
10474719
10464447
10458169
10448967
10443529
10434127
10427068
10421472
10413072
10396775
10396775
10396775
10390987
10385505
10370642
10365047
10357399
10350276
10345136
10340429
10334303
10328335
10322615
10305848
10305848
10305848
10299052
10294770
10288197
10282557
10276282
10271536
10264470
10257577
10254107
10247486
10243132
10230168
10230168
10230168
10230168
10218956
10209224
10206210
10202918
10200440
10196136
10191007
10188705
10187101
10183466
10179666
10167337
10167337
10167337
10164290
10162371
10158415
10157185
10154366
10152239
10148242
10145226
10142997
10141103
10139102
10124013
10124013
10124013
10124013
10126130
10121516
10118544
10115142
10112060
10106318
10104681
10101360
10100392
10099937
10096087
10089611
10089611
10089611
10088072
10087306
10083875
10083338
10080884
10077101
10075175
10073104
10072634
10070548
10069905
10063297
10063297
10063297
10063297
10064334
10063269
10064794
10063695
10062173
10062421
10059907
10060594
10059131
10058068
10056625
10056857
10052173
10052173
10053685
10050833
10049474
10048307
10048292
10046396
10046443
10047295
10046422
10050437
10051247
10036546
10036546
10036546
10036546
10038074
10038917
10039973
10039827
10039158
10038948
10037303
10037845
10036122
10036277
10033993
10033993
10033993
10033993
10034127
10034836
10032982
10033775
10034432
10032523
10031844
10031465
10031612
10030984
10030658
10025961
10025961
10023024
10023024
10021600
10022140
10019455
10019322
10016574
10015858
10015402
10012550
10013591
10012489
10005861
10005861
10005861
10006689
10007112
10005250
10003033
10003149
10001409
10001491
9998930
9999518
9997154
9998021
9996485
9993104
9993104
9993104
9990814
9991896
9991381
9990647
9987781
9989632
9987850
9988264
9987409
9986679
9985262
9981644
9981644
9981644
9980654
9980889
9981225
9977764
9977605
9977028
9978107
9981385
9984241
9983140
9974197
9969178
9966380
9967432
9967432
9969129
9968122
9966544
9966541
9965550
9964887
9962692
9963141
9962272
9961624
9960145
9957534
9957534
9957534
9958897
9959165
9958351
9956043
9957205
9954549
9953642
9954263
9953398
9954110
9950862
9946233
9946233
9946233
9946233
9943146
9944253
9943687
9943272
9941101
9941575
9939033
9938849
9938624
9936044
9935707
9934590
9934590
9934590
9934782
9932390
9933966
9932547
9932234
9932438
9930757
9930791
9929605
9928288
9927703
9923375
9923375
9923375
9923375
9922720
9923952
9921613
9924421
9920759
9921449
9920990
9920278
9921223
9920894
9919364
9913525
9913525
9913525
9913525
9913924
9915440
9915049
9918081
9922332
9920446
9914648
9906663
9907705
9910794
9910234
9911344
9911344
9911344
9910115
9910441
9909369
9908418
9910385
9907371
9908878
9909276
9910196
9908977
9908980
9909214
9908397
9904181
9904181
9904460
9900883
9902388
9901376
9901750
9899716
9900601
9896786
9893779
9894000
9888816
9888816
9888816
9888010
9887441
9887030
9887089
9885379
9887086
9885240
9885807
9885133
9887105
9883709
9886382
9886382
9886382
9886382
9886685
9887609
9886360
9886367
9889203
9888753
9888724
9886651
9887579
9886698
9887469
9884719
9884719
9884719
9885174
9886408
9884995
9887115
9887179
9887260
9887574
9887633
9888098
9885361
9886168
9882557
9882557
9882557
9882557
9882492
9880881
9881984
9883754
9887703
9880515
9874922
9873880
9874799
9876186
9876958
9877544
9877544
9877544
9877628
9879472
9877715
9877380
9878440
9879002
9876312
9876411
9881313
9879268
9878023
9879626
9879626
9879626
9879626
9882030
9881976
9881297
9883937
9883163
9881023
9881622
9880935
9881096
9878845
9880007
9880466
9880170
9880170
9880212
9881704
9881524
9879649
9882056
9880587
9880875
9881378
9882185
9881802
9882309
9882928
9882928
9882928
9882928
9884444
9882598
9883893
9884116
9884788
9885786
9885265
9885798
9889062
9887751
9887519
9889634
9889634
9889634
9892032
9890904
9890960
9890677
9895312
9895899
9897429
9895786
9896354
9897689
9898419
9896825
9896825
9896510
9896510
9895746
9897739
9899241
9905901
9907804
9903921
9893794
9895336
9895181
9901357
9904346
9904346
9904346
9904961
9906792
9906056
9908430
9906979
9909509
9910156
9910103
9911382
9910461
9913123
9914289
9917361
9917361
9917361
9920340
9920311
9923780
9920738
9922757
9923922
9924355
9925144
9923420
9925454
9923543
9924429
9924429
9924429
9925336
9928216
9928839
9928366
9926493
9928679
9929703
9927014
9927623
9928846
9930197
9928613
9929612
9930031
9930031
9931763
9931769
9931984
9932543
9931775
9933456
9931954
9934229
9933336
9936287
9936361
9939450
9939450
9939450
9940584
9941443
9941358
9941851
9943302
9942529
9943681
9942795
9943745
9945216
9944768
9954719
9954719
9954719
9954719
9958678
9955708
9946197
9945933
9948856
9948760
9950386
9954001
9954613
9954947
9955591
9954667
9954667
9954667
9955471
9954361
9958283
9957711
9960839
9959083
9959770
9961123
9961148
9962194
9964134
9967810
9967810
9967810
9967810
9967749
9968382
9968705
9967445
9966498
9967851
9968261
9966825
9967608
9967705
9967473
9967583
9969093
9969093
9969093
9969055
9970975
9971067
9970885
9972392
9971870
9973877
9972359
9973829
9974963
9974779
9974779
9975682
9975682
9976683
9978042
9977359
9978647
9980153
9978014
9981242
9980061
9981934
9981887
9984121
9983276
9983272
9983272
9984075
9985548
9986288
9986780
9983101
9986844
9986473
9989450
9988555
9990750
9995046
9987827
9987827
9987827
9987465
9989387
9989871
9994408
9992225
9994526
9995026
9997161
9996876
9996423
9996271
9999412
9999412
9999412
9999412
10000070
10001217
10002531
10002911
10005410
10007398
10008120
10007250
10009603
10010080
10010201
10011442
10011442
10011442
10011597
10011178
10009649
10012648
10010890
10009930
10010623
10010996
10011510
10012357
10012844
10013671
10013671
10013671
10013671
10016535
10016243
10015739
10016792
10018501
10019282
10020071
10020652
10021769
10021185
10021005
10022343
10022343
10022343
10021839
10022510
10021554
10020736
10021950
10022112
10024218
10023113
10024092
10023624
10024091
10027218
10027218
10027218
10027218
10029191
10027656
10029610
10026786
10028794
10028449
10027936
10031044
10032685
10031758
10037980
10043279
10033085
10033085
10028947
10029130
10031937
10035114
10035868
10037294
10037794
10035082
10036794
10037958
10036508
10038766
10038766
10038766
10038766
10041150
10041336
10043177
10043851
10042634
10044971
10045353
10047516
10047167
10048853
10047914
10047914
10049637
10049637
10049696
10048480
10049719
10048148
10048923
10046896
10049623
10052426
10050003
10049894
10047911
10052730
10052730
10052730
10053122
10053327
10052811
10054788
10055268
10055180
10056869
10056557
10055610
10057180
10058479
10059561
10059561
10059561
10059841
10062741
10061157
10062290
10059580
10060793
10062470
10062399
10063778
10061529
10064640
10064845
10065846
10065846
10065846
10066791
10067092
10069701
10069241
10070046
10070086
10069246
10070648
10070015
10069964
10069908
10073812
10073812
10073812
10081108
10086166
10082813
10074609
10071507
10072085
10076955
10076653
10080413
10079627
10080951
10081923
10081449
10081486
10081486
10083934
10083848
10083880
10085046
10086209
10084726
10085736
10090120
10090707
10090501
10090688
10095104
10095104
10095104
10094830
10093948
10095606
10093301
10093900
10094534
10093444
10093784
10092952
10093307
10092370
10092614
10092614
10092614
10092614
10093648
10095596
10093155
10093609
10095119
10096819
10096006
10095823
10097889
10098474
10096557
10099504
10099504
10099504
10098794
10099195
10100963
10101447
10101817
10103040
10100135
10101890
10103211
10102384
10102199
10103441
10103441
10103441
10103441
10103102
10103993
10106328
10107077
10105720
10106397
10106719
10106915
10108797
10108483
10108712
10108721
10108721
10108721
10108721
10109724
10110050
10111454
10111466
10115947
10120336
10120667
10108758
10106375
10108511
10113255
10113255
10113781
10113781
10113671
10115476
10115978
10114684
10116032
10116903
10117723
10118539
10117866
10119144
10116718
10119143
10122252
10122252
10121262
10122316
10122539
10123301
10124731
10125979
10125684
10124189
10125099
10124281
10123990
10121403
10121403
10121403
10122475
10121990
10123320
10122334
10121964
10122542
10120322
10121487
10122699
10122295
10123290
10123617
10123617
10123617
10123617
10123752
10125373
10123848
10122617
10124179
10126152
10124622
10125168
10126287
10126358
10125674
10125672
10125672
10125672
10126300
10126460
10125746
10126938
10126263
10128247
10126942
10128620
10129298
10126784
10128441
10127498
10127498
10127498
10127498
10127789
10127136
10129093
10127959
10130914
10129538
10139520
10140594
10135371
10125826
10127643
10131920
10131920
10131920
10132490
10132173
10132865
10134510
10133917
10132336
10134327
10133679
10136791
10134887
10135834
10136080
10136080
10136080
10136080
10139426
10139036
10141096
10142385
10140847
10141997
10141207
10143283
10142692
10143698
10140351
10139899
10138451
10138451
10140049
10138401
10139202
10138879
10139978
10138073
10137950
10139173
10141076
10140668
10140012
10142717
10142717
10142717
10142717
10142676
10142093
10143433
10141926
10142976
10144207
10142228
10142403
10142658
10143537
10142058
10142058
10142058
10142058
10144781
10144257
10143950
10143666
10146810
10146364
10145207
10147168
10146424
10146891
10146846
10146949
10146949
10147311
10147311
10146906
10145447
10145579
10147375
10146460
10147280
10149396
10154824
10157343
10155733
10147352
10147352
10147352
10149611
10149754
10148969
10150970
10150386
10150450
10151275
10151610
10151815
10152068
10152240
10152481
10153120
10153120
10153120
10154461
10154766
10156445
10155980
10157507
10156824
10157311
10157951
10156857
10158255
10156871
10156334
10156334
10156334
10154939
10154828
10155906
10153572
10154139
10152745
10153425
10154893
10152810
10153922
10155830
10155579
10154633
10154814
10154814
10157000
10157265
10155761
10158510
10157608
10157729
10157744
10157433
10158066
10157808
10159893
10159507
10159507
10159507
10160346
10159875
10160732
10159051
10161047
10161205
10160624
10161308
10162482
10164473
10164142
10164462
10164462
10164462
10164462
10163938
10164453
10163401
10164071
10164233
10164668
10164569
10164386
10164308
10165297
10165217
10164065
10164065
10164065
10161609
10164928
10165990
10167096
10168019
10168268
10168884
10168645
10168400
10170174
10168223
10168743
10168743
10168743
10168743
10171137
10172188
10173077
10173612
10173420
10174023
10176024
10175756
10175325
10176021
10176905
10176819
10175547
10175547
10175547
10176716
10174581
10175441
10174858
10175716
10174073
10175078
10172368
10173685
10173861
10173368
10173368
10175479
10175479
10175120
10175077
10175281
10174106
10175929
10174963
10175242
10174518
10175528
10176654
10177150
10176328
10176129
10176129
10174670
10175414
10175517
10176394
10177080
10175973
10175406
10177298
10177891
10176033
10175453
10176455
10176455
10176455
10176807
10177351
10177907
10178722
10176230
10174278
10174127
10175472
10175407
10174993
10175018
10179263
10179263
10179263
10179263
10183305
10181864
10175168
10170363
10171213
10173481
10173358
10174128
10173526
10174290
10173867
10172836
10172836
10172836
10172967
10173519
10172700
10172482
10172635
10173808
10172772
10174389
10174190
10173025
10173547
10173290
10173290
10173290
10173290
10174107
10173129
10173296
10171114
10167626
10169237
10168888
10167264
10168156
10166610
10166040
10162775
10162775
10162775
10164221
10164686
10164426
10163330
10161860
10164086
10163648
10161802
10162136
10161175
10160975
10160483
10160483
10160483
10160483
10160848
10157083
10159478
10160018
10159373
10158242
10158301
10156517
10158059
10157128
10157954
10156083
10156694
10156694
10155462
10157760
10155872
10156687
10156671
10156034
10156330
10153609
10154012
10153879
10154943
10153003
10153003
10153003
10153003
10154343
10161833
10163611
10157523
10147504
10148310
10152785
10153380
10152304
10152910
10149556
10151500
10151500
10151500
10153318
10150686
10151699
10150532
10152411
10152032
10151313
10151315
10150634
10152602
10153450
10153745
10153745
10152241
10152241
10151395
10153399
10153265
10154228
10152772
10151207
10150130
10147751
10147419
10147005
10144798
10144798
10144798
10145136
10143495
10145454
10145513
10146093
10146021
10143877
10146104
10145450
10146251
10146822
10146167
10145953
10145953
10145953
10144497
10146183
10145190
10145007
10143048
10144859
10145555
10144660
10145996
10143385
10144783
10143786
10143786
10143786
10145145
10145325
10146570
10145677
10143938
10146930
10146266
10144958
10145676
10144035
10145643
10143034
10143380
10143380
10143380
10144169
10143610
10145866
10150122
10154146
10151455
10141251
10140260
10141258
10143830
10145799
10146613
10146613
10146613
10147276
10146616
10145357
10146179
10147494
10145635
10147199
10147908
10149394
10147634
10148211
10150891
10150891
10150891
10150891
10150969
10151326
10152362
10151587
10150903
10150472
10151351
10150812
10148676
10149271
10148091
10147451
10147451
10147451
10145646
10146637
10148571
10145337
10146466
10146310
10146986
10147028
10148823
10149678
10147225
10147563
10147563
10147563
10147563
10149628
10149286
10150002
10149133
10147464
10148955
10148870
10149320
10148217
10149615
10150262
10149549
10149549
10149549
10152415
10147632
10151787
10152314
10151880
10151278
10153081
10153000
10150682
10150188
10150720
10152136
10150419
10150419
10150419
10151005
10152473
10154779
10161628
10162100
10152500
10146725
10148373
10150695
10150542
10153986
10154355
10154882
10154844
10154282
10154897
10154987
10155617
10156470
10155786
10156167
10156547
10156056
10157196
10158302
10158839
10158839
10158839
10160423
10161763
10159045
10159379
10160804
10159717
10159329
10159965
10160612
10158864
10157593
10156294
10156294
10156294
10156294
10156516
10155100
10159834
10155356
10156570
10156103
10157322
10158477
10156987
10157151
10157276
10158218
10158218
10158218
10158380
10158769
10159314
10158724
10159608
10157406
10157946
10157864
10157548
10159695
10160088
10160709
10160709
10160709
10160709
10159803
10160308
10160010
10163534
10158966
10160569
10158173
10158934
10159830
10159939
10158835
10160872
10160872
10160872
10161866
10166311
10167886
10165257
10154789
10154172
10155895
10158301
10160992
10159802
10159199
10161946
10161946
10161946
10161946
10161218
10162405
10161882
10161925
10163640
10163880
10163496
10163602
10166009
10163706
10166648
10163721
10167421
10167421
10168226
10168408
10164116
10167548
10167926
10168368
10166891
10164804
10163539
10163267
10165047
10162024
10162024
10162024
10162024
10164612
10165168
10163311
10161937
10162930
10163007
10163842
10162677
10166022
10163603
10162507
10162507
10162507
10162507
10163265
10164564
10164677
10162564
10162863
10161921
10161956
10161474
10162958
10162193
10160791
10161443
10160945
10160945
10160945
10163440
10162095
10163975
10162913
10162356
10162596
10161875
10160855
10163429
10161449
10160670
10160670
10164856
10164856
10166976
10171327
10168131
10159015
10156885
10159151
10160947
10161286
10164916
10161579
10162720
10162192
10162192
10162192
10161013
10163935
10165230
10164507
10165105
10163587
10166239
10165607
10166712
10167601
10168630
10169764
10169764
10169764
10171986
10170535
10168564
10169839
10168037
10168432
10166709
10168043
10167632
10164883
10166500
10165902
10166052
10164637
10164637
10167157
10165634
10166397
10167006
10168155
10164573
10167845
10167211
10168767
10167796
10168991
10167301
10167301
10167301
10168255
10168849
10168614
10169664
10168839
10169021
10168939
10169872
10169325
10168160
10170245
10171852
10171852
10171852
10171852
10174195
10170323
10171612
10171160
10173016
10172711
10170322
10172040
10170005
10170784
10171826
10170988
10170988
10170988
10171825
10174912
10177731
10179277
10167938
10165182
10165618
10168246
10171652
10170896
10170753
10169238
10169238
10169238
10169238
10170948
10172688
10172791
10171489
10169848
10172485
10172250
10173289
10172297
10170919
10173896
10176769
10176769
10176769
10175861
10177385
10175013
10174033
10174882
10175345
10175126
10173640
10171109
10173139
10173577
10172102
10172102
10172102
10172102
10169244
10170497
10172249
10171684
10170499
10171414
10172345
10171915
10172849
10172703
10173211
10172863
10172883
10172883
10172896
10173990
10172502
10172477
10173881
10174489
10174832
10172654
10173046
10174724
10174721
10175256
10175256
10174441
10174441
10174803
10174066
10174485
10175774
10174511
10175984
10177193
10174736
10175205
10173727
10174685
10174685
10174685
10173552
10177190
10176539
10180936
10185362
10185903
10178975
10172951
10172628
10173937
10177737
10178516
10177275
10177275
10177275
10179833
10179206
10180376
10178939
10180965
10182182
10180810
10182122
10184236
10183072
10183905
10186776
10186776
10186776
10186776
10187572
10186523
10189617
10188322
10189537
10187355
10186856
10187741
10185613
10184068
10185327
10183783
10183783
10183783
10182497
10183525
10184110
10184787
10182755
10183736
10183382
10185169
10182251
10185153
10187614
10187480
10187480
10187480
10187480
10186077
10187920
10186825
10187226
10186863
10187655
10186331
10187019
10188211
10187910
10185356
10188901
10185546
10185546
10187367
10187170
10186261
10189148
10187567
10190112
10187131
10188147
10187830
10185863
10187735
10186583
10186583
10186583
10186583
10189098
10190401
10197337
10198510
10190600
10182539
10183510
10185513
10189823
10188361
10191172
10191172
10191172
10191172
10188930
10190519
10191006
10192668
10189019
10192000
10192418
10192440
10194881
10196436
10195849
10197741
10197741
10197741
10197741
10198018
10197906
10199017
10199245
10198182
10198357
10197163
10195555
10197883
10195700
10194690
10194690
10194690
10194690
10192137
10193239
10194332
10194758
10194144
10194773
10195311
10194407
10194990
10194892
10196035
10195441
10195441
10196437
10196437
10198237
10195616
10196868
10196549
10196348
10196710
10196562
10196972
10196888
10197127
10197445
10197445
10197445
10196843
10197728
10199608
10200538
10199296
10200035
10198575
10200457
10198649
10196597
10199748
10198554
10198577
10198393
10198393
10200574
10201489
10204711
10209328
10209363
10201532
10196605
10198091
10202149
10203858
10204237
10202893
10202893
10202893
10203138
10202507
10203724
10204652
10205108
10205676
10205031
10205598
10207097
10206737
10208404
10209027
10209027
10209027
10209027
10210389
10210366
10212046
10209912
10211908
10210647
10211610
10208685
10210813
10208063
10208948
10207565
10207565
10207565
10207156
10208377
10208730
10207023
10207834
10207887
10208311
10207624
10207809
10206793
10209673
10209668
10209668
10209668
10209668
10208159
10209651
10209066
10209578
10208233
10209638
10208192
10209784
10209443
10210368
10209681
10210352
10210352
10210352
10211045
10209285
10210518
10210996
10212314
10210498
10213142
10212752
10213369
10212484
10212887
10211510
10211510
10211510
10211510
10212841
10211107
10213945
10213381
10214615
10222363
10224263
10218753
10208348
10210037
10213525
10215056
10214379
10214379
10215051
10217100
10215860
10214865
10218357
10215620
10217769
10217886
10218324
10219240
10218940
10221739
10220138
10220138
10220138
10220047
10223535
10224344
10222572
10223165
10223595
10222286
10222468
10222424
10220493
10219100
10219100
10218738
10218738
10220055
10218630
10220251
10218326
10220093
10220736
10218357
10219326
10219528
10219746
10220418
10220198
10220198
10220198
10220746
10221696
10220589
10219821
10220778
10221403
10221086
10223353
10220750
10223493
10221061
10222307
10222307
10222307
10222271
10225035
10222227
10224488
10223943
10223925
10225964
10225616
10226557
10224693
10225288
10226186
10222799
10222799
10222799
10225558
10227803
10228014
10225305
10223373
10227171
10232317
10239700
10235622
10225245
10221643
10230135
10230135
10230135
10228025
10229810
10230160
10229307
10230669
10229765
10231208
10230545
10232097
10232938
10232816
10235122
10234082
10233788
10233788
10235059
10235884
10236774
10237468
10237280
10240315
10240122
10239094
10238225
10237909
10238563
10236571
10236571
10236571
10236571
10234776
10235369
10235382
10237732
10234442
10235202
10236871
10236757
10235682
10237780
10236428
10236428
10236428
10236428
10237310
10237875
10238351
10238846
10240004
10239092
10241453
10240222
10239839
10238285
10239445
10241169
10241169
10241169
10241169
10240662
10240695
10242177
10242979
10241859
10243169
10243770
10241051
10241067
10240736
10241268
10241268
10241268
10241268
10241659
10242680
10242779
10248849
10253249
10250872
10242090
10238179
10240854
10241221
10245016
10245254
10245254
10243634
10243634
10247641
10244508
10247286
10246701
10248793
10248373
10251597
10249504
10249882
10249572
10252623
10252623
10252623
10254816
10252225
10253634
10256193
10253879
10254363
10254424
10253034
10252137
10253587
10251762
10248682
10250736
10249635
10249635
10250368
10248541
10250218
10248724
10249322
10250697
10250221
10249830
10252430
10250864
10252593
10251552
10251552
10251552
10250889
10252115
10251217
10253570
10251595
10252764
10252903
10251944
10251813
10250576
10254106
10252532
10252532
10252532
10252532
10254333
10254251
10255921
10255915
10254989
10252536
10255786
10256150
10255495
10255022
10254959
10255803
10255803
10255803
10258919
10262588
10270037
10263170
10253479
10251417
10255741
10256024
10258667
10259762
10258371
10259887
10259887
10259887
10259887
10262130
10262288
10262666
10262510
10263302
10263733
10265259
10265800
10264782
10266309
10267922
10268922
10268922
10268922
10272197
10270658
10268414
10269396
10273371
10269493
10268573
10269274
10267181
10270081
10267710
10268384
10268384
10268384
10268384
10268791
10269444
10267614
10268965
10268593
10269598
10269428
10270638
10270967
10274558
10271144
10270579
10271112
10271112
10270935
10272874
10275204
10273765
10272479
10271047
10275504
10275030
10275012
10275274
10274355
10278622
10278622
10278622
10278622
10279960
10277713
10278298
10278332
10277518
10274587
10276679
10278908
10278398
10278641
10287890
10287890
10289657
10289657
10286377
10275475
10274902
10277403
10278968
10282870
10281522
10282813
10283238
10281802
10282561
10284093
10284093
10284093
10283940
10284933
10285469
10285291
10285473
10286246
10286336
10287743
10286933
10288779
10288640
10289510
10289510
10289510
10289137
10288110
10289912
10288971
10288375
10285907
10286221
10288435
10287594
10285102
10284143
10286215
10285379
10285379
10285379
10285744
10285928
10287268
10287182
10285343
10286208
10285776
10285150
10285778
10284671
10285545
10285254
10285254
10285254
10285687
10286396
10284745
10283782
10285115
10284244
10284205
10286288
10285223
10285833
10285037
10285177
10285947
10285373
10285373
10285689
10284015
10285506
10284767
10284782
10283433
10285312
10282398
10283568
10284549
10283417
10290604
10290604
10290604
10281495
10279615
10280814
10284897
10285149
10286599
10285426
10284322
10285710
10285576
10286473
10285530
10285530
10285530
10285530
10288955
10287638
10287794
10287013
10287805
10288923
10289037
10287820
10284812
10290310
10290634
10288358
10288358
10288358
10288583
10288192
10285094
10286093
10285405
10282615
10285519
10282176
10283416
10283724
10280911
10280666
10280666
10280666
10280666
10284407
10281504
10280017
10279949
10282484
10280494
10278956
10282276
10280717
10279922
10279429
10278960
10278960
10278960
10278960
10278941
10279193
10276722
10280734
10276946
10277961
10277566
10276343
10277401
10276393
10278358
10278358
10276282
10276282
10276618
10278205
10275603
10275668
10274285
10274637
10277387
10272442
10273315
10274238
10274814
10272987
10282496
10282496
10284652
10279741
10268489
10270970
10270709
10274407
10274474
10273314
10273359
10273521
10275591
10273712
10273712
10273712
10273814
10273214
10274343
10273608
10274583
10274786
10275545
10275410
10274123
10276590
10275777
10276842
10276842
10276842
10276842
10276496
10275966
10273394
10274739
10271972
10271490
10269266
10269665
10270167
10268849
10269197
10267986
10267986
10267986
10269048
10266355
10267073
10267400
10267560
10268389
10269665
10267763
10267779
10266796
10268174
10265203
10265203
10265203
10265203
10268240
10266580
10266103
10265565
10265108
10265991
10267889
10266853
10266715
10266029
10266975
10266643
10266643
10266643
10268261
10266583
10265061
10266831
10264988
10266068
10265687
10263727
10264152
10264623
10264455
10275103
10275103
10275103
10275103
10272170
10258878
10260597
10261438
10262416
10265146
10266083
10266260
10266899
10266170
10265612
10266799
10266708
10266708
10267055
10266710
10270307
10267046
10267347
10267555
10268805
10269381
10269194
10271118
10272141
10270463
10270463
10270463
10270463
10269901
10269515
10270019
10268531
10267454
10268117
10264695
10265292
10264129
10266264
10265661
10265661
10265661
10265661
10266097
10263690
10264743
10265262
10267220
10265952
10264902
10265518
10265892
10267190
10266582
10265242
10267931
10265497
10265497
10265497
10265497
10265230
10265424
10267118
10265414
10267665
10268124
10265448
10265238
10267074
10267074
10267074
10266205
10267114
10265016
10266115
10265833
10266313
10265748
10266110
10267919
10269320
10273561
10277368
10261695
10261695
10261695
10263581
10266400
10269654
10270111
10266786
10267762
10269773
10269067
10270094
10270586
10270449
10272039
10272039
10272039
10271181
10272233
10273389
10271030
10274021
10274511
10272531
10275016
10277339
10277373
10275171
10274141
10276365
10273845
10273845
10271982
10275321
10273214
10273310
10271557
10272687
10271889
10270914
10271471
10271757
10271475
10274622
10274622
10274622
10273646
10274420
10273857
10272187
10274211
10272806
10275337
10274259
10271876
10276519
10273416
10272641
10272641
10272641
10272641
10272659
10274577
10274649
10274360
10275629
10274766
10276531
10274576
10275821
10276233
10277969
10275626
10275626
10275626
10277228
10277066
10274892
10275442
10276060
10276791
10278384
10286493
10287556
10282132
10273803
10279286
10279286
10279286
10279286
10279889
10278365
10279970
10278853
10283711
10279593
10281488
10281042
10282779
10281436
10283255
10283655
10283655
10283655
10285601
10286669
10286928
10286760
10285491
10289144
10289197
10286739
10289088
10287364
10287247
10284411
10284411
10284411
10284411
10285575
10285648
10285516
10284429
10283466
10282910
10284184
10286207
10286741
10285013
10285318
10287144
10286665
10286665
10285969
10288024
10288385
10288392
10287624
10288638
10288872
10287256
10289627
10288208
10288397
10288137
10288137
10288137
10287277
10290791
10290395
10291544
10288907
10289565
10291006
10290828
10291558
10292814
10291571
10291158
10291158
10291158
10291158
10289525
10290893
10294064
10292822
10294821
10296472
10303770
10303969
10292685
10287858
10289477
10293987
10293987
10293987
10295757
10295211
10293601
10295990
10298156
10295551
10297470
10298934
10299909
10299549
10297427
10302983
10302983
10302983
10302983
10301643
10303182
10306163
10307074
10307803
10308876
10307399
10308141
10307933
10307217
10306172
10306488
10306488
10306488
10304035
10306290
10308287
10306581
10301770
10307458
10306021
10307066
10305826
10307575
10308915
10308136
10308136
10308136
10308136
10308281
10310904
10309594
10310509
10309729
10312309
10308913
10312620
10312166
10312503
10309691
10311284
10310842
10310842
10312432
10313537
10311788
10314299
10314477
10313521
10315603
10315813
10313985
10314330
10314773
10314624
10314624
10314624
10314624
10314935
10314179
10314641
10322387
10328684
10324650
10314737
10311203
10312499
10314968
10318694
10318694
10318694
10318694
10319250
10319887
10319010
10321187
10319994
10321171
10320980
10320691
10323410
10321479
10325148
10324558
10324558
10324558
10324558
10324726
10325931
10329430
10326138
10323829
10327575
10326432
10324890
10327436
10326516
10320930
10322264
10322264
10322264
10323269
10322372
10324529
10322472
10323476
10323499
10323016
10324786
10323749
10322984
10324981
10324232
10324232
10324232
10323959
10326309
10326197
10324255
10324402
10326438
10324953
10326778
10325219
10324617
10327251
10327127
10327127
10327127
10327120
10328340
10327746
10327412
10325880
10328886
10326511
10326214
10327225
10328288
10325972
10325642
10327995
10332818
10332818
10338766
10338614
10330283
10324442
10322301
10327437
10327639
10330492
10332463
10332566
10331567
10332787
10332787
10332787
10332132
10330680
10331448
10333319
10335390
10334326
10334486
10334477
10336640
10335043
10335462
10336278
10336278
10336278
10336278
10337661
10338548
10335881
10335468
10335775
10335595
10335091
10334982
10333799
10335983
10334189
10332162
10332162
10332162
10335505
10333969
10333857
10334943
10335386
10335988
10334575
10334456
10335083
10336610
10335851
10337597
10337597
10337597
10337597
10334462
10337676
10336716
10337030
10336470
10337094
10339640
10336543
10336185
10336552
10338717
10335346
10335346
10335346
10339918
10337375
10337661
10336445
10336562
10337375
10340481
10345303
10349315
10343576
10334733
10339304
10339304
10339304
10339304
10339571
10338416
10338925
10339669
10341289
10339629
10342747
10343805
10342155
10342449
10342203
10343252
10343322
10343322
10345104
10346372
10347022
10348732
10347501
10348875
10348795
10349476
10349569
10347570
10350217
10349498
10349498
10345077
10345077
10346456
10345728
10344841
10346005
10344775
10347148
10346267
10344476
10346763
10347870
10349104
10349104
10349104
10349389
10349370
10350293
10351037
10348995
10352006
10350395
10352838
10352043
10350716
10351815
10353363
10353393
10353393
10353393
10350463
10357326
10357386
10357783
10358603
10354082
10356594
10356516
10356151
10355159
10355183
10359446
10359446
10359446
10362530
10369007
10369480
10362038
10350913
10356285
10359706
10361273
10362476
10362521
10363177
10363357
10363523
10363523
10363523
10364166
10363184
10364694
10365835
10365653
10367025
10364280
10364895
10365500
10367766
10366639
10367909
10367909
10367909
10367909
10370484
10368709
10367765
10365933
10366235
10366535
10362939
10363459
10361415
10362667
10363176
10361392
10359192
10359192
10361240
10360737
10361408
10360605
10361004
10361184
10361011
10360038
10360747
10359360
10360019
10358734
10358734
10358734
10358734
10356981
10356365
10356641
10357460
10354635
10356307
10356896
10354508
10354754
10356381
10353818
10353818
10353818
10353818
10351745
10350038
10346706
10349587
10346793
10345537
10345787
10344728
10343550
10347722
10353758
10334659
10334659
10334659
10334659
10336427
10335702
10336256
10335427
10334235
10331626
10333311
10331568
10331614
10331086
10327471
10327471
10327471
10327471
10326781
10326438
10324141
10324615
10324631
10324702
10322837
10321298
10322499
10321222
10320244
10314150
10314150
10313332
10313332
10314695
10309246
10307442
10308545
10305335
10301963
10303198
10300556
10302749
10299002
10294387
10294387
10294387
10295096
10294887
10294002
10292058
10288342
10288768
10287052
10286123
10284395
10285536
10283199
10282549
10283146
10278181
10278181
10275882
10279330
10275051
10273792
10273507
10274437
10272026
10273788
10273020
10267453
10267801
10263764
10263764
10263764
10261565
10262454
10260673
10262220
10259020
10261152
10264664
10270566
10269342
10254494
10250881
10252906
10252906
10252906
10252906
10253421
10253732
10254950
10249918
10251622
10250069
10248258
10250112
10250251
10247597
10248178
10245337
10245337
10245337
10244449
10246926
10244886
10245049
10245302
10244865
10243449
10240739
10240906
10239064
10238261
10231819
10231819
10231819
10231819
10234884
10229894
10229520
10229130
10228616
10229089
10226260
10225225
10225933
10226340
10225161
10225795
10225795
10225795
10224084
10221032
10221805
10222091
10222077
10220361
10222417
10220659
10218432
10220394
10218392
10218967
10218967
10218967
10218967
10219757
10219000
10216699
10218474
10218222
10219212
10218119
10213349
10215017
10215666
10213689
10214908
10212402
10212402
10215740
10222690
10226801
10221960
10206924
10208105
10209567
10212490
10211659
10212373
10212914
10214588
10212661
10212661
10212661
10212484
10215589
10214111
10213804
10215094
10214918
10215359
10214619
10217043
10218351
10218221
10218221
10217178
10217178
10219331
10219434
10217082
10218886
10219244
10221214
10218593
10218444
10217587
10216220
10216209
10214180
10214180
10214180
10211776
10216859
10214782
10215111
10213602
10214498
10214444
10214685
10214048
10214546
10214981
10215642
10215642
10215642
10215712
10215163
10214441
10215435
10216732
10215244
10216161
10216090
10216246
10215952
10215374
10216805
10216379
10216379
10216379
10215175
10217511
10214252
10214962
10215203
10215258
10215939
10215062
10217373
10220166
10224665
10210226
10210226
10210226
10214200
10216287
10218999
10218459
10217449
10216948
10218356
10220182
10220147
10217556
10220115
10221528
10219609
10222916
10222916
10221379
10218942
10221630
10225268
10224627
10224139
10224869
10225055
10226997
10225531
10223961
10225188
10225188
10225188
10222585
10224333
10223792
10225271
10224130
10222116
10222638
10222161
10223434
10224261
10225052
10223744
10223744
10223744
10223744
10226130
10225125
10227047
10227399
10224159
10225969
10226875
10226853
10225432
10227865
10228782
10226877
10226877
10226877
10226877
10228173
10228463
10228942
10229842
10229543
10231050
10230138
10231491
10228868
10228954
10231670
10231670
10231670
10231670
10229684
10230717
10230541
10232417
10235954
10242212
10239511
10230080
10225393
10225631
10231470
10232540
10232540
10232540
10232540
10235523
10235912
10236570
10236798
10234214
10236732
10237674
10235808
10237516
10238580
10239742
10239742
10239420
10239420
10241127
10241647
10240943
10242896
10242328
10241834
10239872
10240380
10240037
10240340
10238306
10240366
10238827
10238827
10237910
10238083
10236409
10237976
10237809
10239394
10238709
10239651
10241792
10238640
10240261
10237764
10237764
10237764
10239720
10242332
10241428
10242363
10241400
10240820
10240696
10240716
10242021
10242793
10242421
10242030
